Temperature,ea
0,6.1
1,6.6
2,7.1
3,7.6
4,8.1
5,8.7
6,9.4
7,10
8,10.7
9,11.5
10,12.3
11,13.1
12,14
13,15
14,16.1
15,17
16,18.2
17,19.4
18,20.6
19,22
20,23.4
21,24.9
22,26.4
23,28.1
24,29.8
25,31.7
26,33.6
27,35.7
28,37.8
29,40.1
30,42.4
31,44.9
32,47.6
33,50.3
34,53.2
35,56.2
36,59.4
37,62.8
38,66.3
39,69.9